INDEX VERSION 1.131+C:\Users\ramannpr\support_works\Dheeraj-springboot-microservices\.metadata\.plugins\org.eclipse.jdt.core
3880282096.index
319198531.index
3503238276.index
446869445.index
2993760229.index
2343436462.index
2275476630.index
3784670313.index
1141776122.index
3900835787.index
3008087201.index
1299573515.index
3622244527.index
1368622536.index
786902668.index
3329869171.index
676535794.index
3357354403.index
2925679001.index
3292617649.index
2204403105.index
2168459144.index
709509821.index
3880231276.index
1133951738.index
3873696353.index
1756086121.index
3967280502.index
3044087839.index
4128725239.index
2515198726.index
1279138851.index
2940041470.index
737060273.index
2513380141.index
2218208024.index
2410278499.index
2963618097.index
1228135853.index
172809347.index
3885883768.index
3059999453.index
3428192719.index
692542439.index
2513897111.index
3599578774.index
4238078599.index
4200495815.index
1039947775.index
3780435684.index
4099004315.index
2112741047.index
1285544063.index
2088757168.index
1158433969.index
2763765207.index
4034046130.index
3376339023.index
3314676928.index
3170267773.index
3629067910.index
424372971.index
447525961.index
1159230734.index
778568628.index
2363774528.index
3261239881.index
3033822286.index
3090767186.index
1034202274.index
822923203.index
3263262284.index
656741405.index
3709201543.index
2529736297.index
785988714.index
911245093.index
902432117.index
3967364139.index
2580279239.index
3324278907.index
3693918647.index
1403904873.index
3592575225.index
3901881091.index
870993433.index
45900687.index
4270902516.index
3359857299.index
3423015731.index
3934181729.index
2397943341.index
4085636665.index
1887114750.index
2127084088.index
1129633148.index
1913755281.index
1228323271.index
1810282188.index
2366187434.index
657863722.index
3454296904.index
3753146388.index
2138448766.index
3787286074.index
924709048.index
3972787828.index
2511425907.index
751887502.index
332552512.index
2720751595.index
27145952.index
1362710205.index
2941501479.index
3139554680.index
1879276555.index
3028559102.index
3373731574.index
3214032515.index
955409931.index
710418648.index
1190930684.index
2586063389.index
1918478546.index
1291324173.index
3606698810.index
1793950835.index
3484441794.index
696938426.index
378153073.index
1456010245.index
3883608304.index
26683265.index
3796863028.index
667067614.index
1711508044.index
4170990302.index
1865563010.index
205417611.index
1575816604.index
1367400509.index
2020632996.index
3049543270.index
1788716167.index
412363776.index
2335980471.index
4232178577.index
3324128331.index
4124237727.index
1401501661.index
1927604672.index
3457050775.index
1912225051.index
3391610166.index
374393369.index
3638074430.index
1975972258.index
37777695.index
4121206250.index
3695637975.index
2841650353.index
169796881.index
1696811155.index
4087089178.index
3579271641.index
1696494569.index
3373914127.index
208089862.index
2747938833.index
3697795078.index
540026970.index
226300725.index
258215668.index
3878524279.index
1745886755.index
1797716867.index
3653811734.index
3549324868.index
814000683.index
2053729234.index
689552030.index
3915658389.index
2826165369.index
4212076456.index
1710102452.index
2231687035.index
1752862138.index
790293785.index
3142859894.index
3151052348.index
3086375095.index
258828259.index
1253688453.index
1751319221.index
2080692850.index
919331380.index
1487783305.index
3440093413.index
2996827272.index
575839070.index
3105904648.index
479192563.index
2578411941.index
731968244.index
1301585996.index
1068494516.index
3163590721.index
1214367305.index
2399425340.index
1068415008.index
3088083868.index
