INDEX VERSION 1.131+C:\Users\ramannpr\support_works\Dheeraj-springboot-microservices\.metadata\.plugins\org.eclipse.jdt.core
3753146388.index
3391610166.index
353754532.index
3105904648.index
3357354403.index
3503238276.index
3549324868.index
3934181729.index
3484441794.index
1997816215.index
2087289236.index
3656316095.index
1456010245.index
2785605702.index
1792378765.index
3356293960.index
1159230734.index
2747938833.index
1936438554.index
786902668.index
1540393616.index
2002267408.index
2696325860.index
45900687.index
2771310547.index
272921644.index
1118361339.index
388015889.index
2806135479.index
306192891.index
2204403105.index
3237783011.index
2537961431.index
319198531.index
3653811734.index
203828794.index
1913755281.index
689552030.index
2575745721.index
3736370382.index
881775183.index
1854939857.index
1190930684.index
2568090726.index
3263262284.index
27145952.index
1034202274.index
810136069.index
1893894727.index
2573841451.index
3034702034.index
2270638465.index
2513380141.index
919331380.index
575839070.index
1879276555.index
1291324173.index
937209643.index
3709201543.index
2053729234.index
3142859894.index
1620146765.index
2211164925.index
208089862.index
778568628.index
3033822286.index
2423645988.index
466177304.index
2720751595.index
4238078599.index
870993433.index
4244043495.index
3579271641.index
3454296904.index
1752862138.index
1801710740.index
2167590071.index
101701048.index
751704163.index
1294098061.index
2585191488.index
1207465174.index
3599578774.index
3373914127.index
3049543270.index
3592575225.index
296719952.index
3151052348.index
513207819.index
1285544063.index
657863722.index
4170990302.index
3837740769.index
4191256345.index
3885883768.index
3697795078.index
2264889210.index
4099004315.index
1279138851.index
1745886755.index
2138448766.index
1314155335.index
3572967128.index
3608780438.index
2268786752.index
1319128021.index
924673716.index
4121206250.index
271180759.index
2010527581.index
2580279239.index
3722427481.index
3324612352.index
3457050775.index
258215668.index
2841650353.index
986505237.index
2231687035.index
3693918647.index
1403904873.index
2768789911.index
1233488400.index
731968244.index
3863328446.index
2924625579.index
1887114750.index
650748087.index
1295108286.index
1039947775.index
4200495815.index
3028559102.index
2275476630.index
2826165369.index
2127084088.index
4034046130.index
2993760229.index
1068415008.index
4212076456.index
